# Test of Fitting Tool option in Tools menu.
# Show how to separate strong overlaping processes.
# Initial guess:
# G, 100, 0.1, 50
# G, 200, 0.05, 50
# G, 400, 0.01, 50
#
#plot T,dTG
#labX Temperature (C)
#labY1 dTG (dm/dT)
#
#T	dTG
30	0
32	0.001
34	0.00176852
36	0.00747903
38	0.0131324
41	0.0186062
43	0.0241464
46	0.0295095
48	0.0349365
51	0.0401888
53	0.0455025
56	0.050644
59	0.0557309
61	0.060875
64	0.0658509
67	0.070772
69	0.0761822
72	0.0816717
74	0.0870036
77	0.0921206
80	0.097088
82	0.101964
85	0.106498
88	0.110747
90	0.114765
93	0.11831
95	0.121537
98	0.124217
101	0.126416
104	0.128108
106	0.129365
109	0.129991
112	0.130074
114	0.129737
117	0.128844
119	0.127588
122	0.125834
125	0.123712
127	0.121351
130	0.118636
132	0.115784
135	0.112687
137	0.109556
140	0.106285
143	0.103003
146	0.0997521
148	0.0966462
151	0.0935725
154	0.0906345
156	0.087924
159	0.0853172
161	0.0829645
164	0.0807358
166	0.0787675
169	0.0769237
172	0.0752644
174	0.0738429
177	0.0725206
180	0.071347
182	0.0703661
185	0.0694412
187	0.0686739
190	0.0679297
193	0.0672502
196	0.0666193
198	0.0660756
201	0.0654958
204	0.0649217
206	0.0643932
209	0.0637986
212	0.0631818
215	0.0625352
217	0.0618993
220	0.0611743
223	0.0604056
226	0.0595915
228	0.058775
231	0.0578693
234	0.056921
237	0.0559332
240	0.054909
242	0.0538897
245	0.0527979
248	0.0516768
251	0.0505308
253	0.0493995
256	0.0482152
259	0.0470196
262	0.0458178
264	0.044647
267	0.0434461
270	0.0422535
273	0.041073
276	0.0399067
279	0.0387573
281	0.0376557
284	0.0365496
287	0.0354688
289	0.0344396
292	0.0334128
295	0.0324162
298	0.0314508
301	0.0305158
303	0.0296316
306	0.0287545
309	0.0279071
311	0.0271087
314	0.02632
317	0.0255611
319	0.0248494
322	0.0241479
325	0.0234729
327	0.022838
330	0.0222095
333	0.0216025
336	0.0210169
339	0.0204523
342	0.0199077
344	0.0193942
347	0.0188866
350	0.0183961
352	0.017931
355	0.0174684
357	0.0170259
360	0.0165815
363	0.0161436
366	0.0157123
368	0.0152937
371	0.0148718
374	0.0144516
377	0.0140322
379	0.0136184
382	0.0131994
384	0.0127824
387	0.0123585
389	0.0119352
392	0.0115072
395	0.0110788
398	0.0106512
400	0.0102265
403	0.0098026
405	0.00938109
408	0.00896131
411	0.00854584
414	0.00813727
416	0.00773654
419	0.00734769
421	0.00696927
424	0.00660654
427	0.00625864
430	0.00592563
432	0.00560354
435	0.00529862
437	0.00500222
440	0.00472166
442	0.00444791
445	0.00419119
448	0.00394797
450	0.00371204
453	0.00349327
455	0.0032785
458	0.00308016
461	0.00289252
463	0.00270777
466	0.00253892
468	0.00237064
471	0.00221869
474	0.00207577
476	0.00193295
479	0.00180592
481	0.00167626
484	0.00156051
486	0.00143923
489	0.00133067
492	0.00122705
494	0.00111998
497	0.00102966
499	0.000935879
502	0.000858993
505	0.0007889
508	0.000724707
510	0.00065417
512	0.000586963
515	0.000533551
517	0.000471137
520	0.000421795
522	0.0003629
525	0.000318392
528	0.000277476
530	0.000228192
533	0.000194337
535	0.000152416
538	0.000127062
540	9.44682e-05
543	7.86154e-05
545	5.44333e-05
548	4.64749e-05
550	2.99355e-05
553	2.9689e-05
556	3.22142e-05
558	2.34009e-05
561	2.69759e-05
563	1.69774e-05
566	1.83076e-05
568	5.98034e-06
571	6.44612e-06
574	7.80065e-06
576	-2.6311e-06
579	1.30104e-18
581	-9.42738e-06
584	-6.09704e-06
587	-3.76911e-06
589	-1.57282e-05
592	-1.675e-05
595	-1.92527e-05
597	-3.58998e-05
600	-4.26988e-05
602	-6.45767e-05
604	-8.8816e-05
607	-0.00010287
610	-0.000118889
612	-0.000148624
614	-0.000179858
618	-0.000189545
620	-0.000223992
623	-0.000248831
625	-0.000286652
628	-0.000314332
631	-0.000342507
633	-0.000381397
636	-0.000409316
639	-0.00043758
641	-0.000476399
644	-0.000504789
646	-0.000541385
648	-0.000574298
651	-0.000592159
653	-0.000612707
657	-0.000608185
659	-0.000614418
661	-0.000612871
664	-0.000595297
667	-0.000571322
669	-0.000549387
671	-0.000521361
673	-0.000487817
676	-0.000443406
679	-0.00039751
681	-0.000357883
684	-0.000311975
685	-0.000278789
689	-0.000228947
691	-0.000193171
693	-0.000159692
696	-0.00012367
699	-9.08191e-05
702	-6.12164e-05
703	-4.24667e-05
705	-2.1982e-05
708	5.42101e-19
712	2.22795e-05
714	3.65794e-05
716	4.91954e-05
718	6.03389e-05
721	7.29444e-05
723	8.50347e-05
727	0.00010215
728	0.000119974
732	0.000143575
734	0.000168956
736	0.00019686
740	0.000226153
741	0.000257741
744	0.000288686
746	0.000319793
750	0.000347347
754	0.000372192
753	0.000402341
757	0.000420598
758	0.000440323
761	0.000452058
765	0.000457015
767	0.000462515
767	0.000469166
773	0.000455515
773	0.000455539
776	0.000443613
781	0.000421933
780	0.000417578
783	0.000397782
786	0.000376215
787	0.000360694
792	0.000329591
794	0.000309521
796	0.000290099
799	0.000268182
801	0.000252566
802	0.000243664
804	0.000233267
809	0.000212296
809	0.00021356
810	0.000211612
815	0.000193417
815	0.000196985
816	0.000196492
821	0.000178802
823	0.000173672
826	0.000163877
827	0.000162049
833	0.000138434
834	0.000135166
836	0.000126992
834	0.000134605
838	0.000116665
844	9.04735e-05
846	7.99748e-05
849	6.54698e-05
848	6.60146e-05
853	4.41277e-05
854	3.73219e-05
858	2.04659e-05
859	1.4701e-05
863	2.37169e-20
866	-9.92509e-06
869	-1.79126e-05
872	-2.36015e-05
875	-2.70131e-05
877	-2.59482e-05
878	-2.11263e-05
882	-2.15605e-05
884	-1.68411e-05
886	-1.16851e-05
889	-7.80709e-06
891	-2.36908e-06
894	1.7752e-06
895	7.43077e-06
898	1.07398e-05
901	1.36742e-05
903	1.61977e-05
906	1.78275e-05
911	2.01502e-05
909	1.74304e-05
913	1.74302e-05
915	1.52621e-05
919	1.53618e-05
921	1.22528e-05
925	1.32565e-05
926	7.48273e-06
928	4.12154e-06
928	-4.68285e-06
928	-1.34121e-05
928	-2.17709e-05
929	-2.65285e-05
928	-3.58654e-05
928	-4.08511e-05
928	-4.40147e-05
928	-4.52699e-05
927	-4.76278e-05
927	-4.61069e-05
927	-4.36526e-05
926	-4.31141e-05
927	-3.69751e-05
928	-3.046e-05
927	-2.93299e-05
926	-2.82329e-05
924	-2.96483e-05
926	-2.19671e-05
929	-1.15468e-05
927	-1.55359e-05
926	-1.73609e-05
932	-0
932	-9.1927e-07
933	7.47638e-07
933	-1.66198e-06
929	-1.73416e-05
932	-1.14418e-05
931	-1.83373e-05
930	-2.51313e-05
932	-2.22827e-05
932	-2.53439e-05
931	-3.09664e-05
931	-3.24975e-05
930	-3.59014e-05
928	-4.03319e-05
928	-3.71583e-05
934	-1.32027e-05
931	-1.67749e-05
925	-2.55225e-05
929	-6.03288e-06
932	1.28357e-05
929	1.34506e-05
933	3.62262e-05
933	4.61823e-05
933	5.57203e-05
939	8.77075e-05
940	9.99146e-05
939	0.000102161
932	8.20128e-05
932	8.49684e-05
928	7.10303e-05
936	9.40269e-05
938	9.68473e-05
936	8.198e-05
935	6.9625e-05
937	6.7075e-05
936	5.11871e-05
937	4.14574e-05
936	2.21768e-05
934	-2.30824e-06
938	-5.62322e-06
940	-1.74998e-05
941	-3.51389e-05
937	-7.6108e-05
939	-8.01701e-05
